# Pulseq sequence file
# Created by MATLAB mr toolbox

[VERSION]
major 1
minor 4
revision 0

[DEFINITIONS]
AdcRasterTime 1e-07 
BlockDurationRaster 1e-05 
FOV 0.22 0.22 0.132 
GradientRasterTime 1e-05 
Name epi-diff 
RadiofrequencyRasterTime 1e-06 
TotalDuration 30.4656 

# Format of blocks:
# NUM DUR RF  GX  GY  GZ  ADC  EXT
[BLOCKS]
    1 1225   1   0   0   1  0  0
    2 328   2   0   0   2  0  1
    3 134   0   0   0   3  0  0
    4 2343   0   4   4   4  0  0
    5 328   3   0   0   2  0  0
    6 1681   0   4   4   4  0  0
    7  48   0   5   6   0  0  0
    8  69   0   7   8   0  1  0
    9  69   0   9  10   0  1  0
   10  69   0   7  10   0  1  0
   11  69   0   9  10   0  1  0
   12  69   0   7  10   0  1  0
   13  69   0   9  10   0  1  0
   14  69   0   7  10   0  1  0
   15  69   0   9  10   0  1  0
   16  69   0   7  10   0  1  0
   17  69   0   9  10   0  1  0
   18  69   0   7  10   0  1  0
   19  69   0   9  10   0  1  0
   20  69   0   7  10   0  1  0
   21  69   0   9  10   0  1  0
   22  69   0   7  10   0  1  0
   23  69   0   9  10   0  1  0
   24  69   0   7  10   0  1  0
   25  69   0   9  10   0  1  0
   26  69   0   7  10   0  1  0
   27  69   0   9  10   0  1  0
   28  69   0   7  10   0  1  0
   29  69   0   9  10   0  1  0
   30  69   0   7  10   0  1  0
   31  69   0   9  10   0  1  0
   32  69   0   7  10   0  1  0
   33  69   0   9  10   0  1  0
   34  69   0   7  10   0  1  0
   35  69   0   9  10   0  1  0
   36  69   0   7  10   0  1  0
   37  69   0   9  10   0  1  0
   38  69   0   7  10   0  1  0
   39  69   0   9  10   0  1  0
   40  69   0   7  10   0  1  0
   41  69   0   9  10   0  1  0
   42  69   0   7  10   0  1  0
   43  69   0   9  10   0  1  0
   44  69   0   7  11   0  1  0
   45 2900   0   0   0   0  0  0
   46 1225   1   0   0   1  0  0
   47 328   4   0   0   2  0  1
   48 134   0   0   0   3  0  0
   49 2343   0   4   4   4  0  0
   50 328   5   0   0   2  0  0
   51 1681   0   4   4   4  0  0
   52  48   0   5   6   0  0  0
   53  69   0   7   8   0  1  0
   54  69   0   9  10   0  1  0
   55  69   0   7  10   0  1  0
   56  69   0   9  10   0  1  0
   57  69   0   7  10   0  1  0
   58  69   0   9  10   0  1  0
   59  69   0   7  10   0  1  0
   60  69   0   9  10   0  1  0
   61  69   0   7  10   0  1  0
   62  69   0   9  10   0  1  0
   63  69   0   7  10   0  1  0
   64  69   0   9  10   0  1  0
   65  69   0   7  10   0  1  0
   66  69   0   9  10   0  1  0
   67  69   0   7  10   0  1  0
   68  69   0   9  10   0  1  0
   69  69   0   7  10   0  1  0
   70  69   0   9  10   0  1  0
   71  69   0   7  10   0  1  0
   72  69   0   9  10   0  1  0
   73  69   0   7  10   0  1  0
   74  69   0   9  10   0  1  0
   75  69   0   7  10   0  1  0
   76  69   0   9  10   0  1  0
   77  69   0   7  10   0  1  0
   78  69   0   9  10   0  1  0
   79  69   0   7  10   0  1  0
   80  69   0   9  10   0  1  0
   81  69   0   7  10   0  1  0
   82  69   0   9  10   0  1  0
   83  69   0   7  10   0  1  0
   84  69   0   9  10   0  1  0
   85  69   0   7  10   0  1  0
   86  69   0   9  10   0  1  0
   87  69   0   7  10   0  1  0
   88  69   0   9  10   0  1  0
   89  69   0   7  11   0  1  0
   90 2900   0   0   0   0  0  0
   91 1225   1   0   0   1  0  0
   92 328   6   0   0   2  0  1
   93 134   0   0   0   3  0  0
   94 2343   0   4   4   4  0  0
   95 328   7   0   0   2  0  0
   96 1681   0   4   4   4  0  0
   97  48   0   5   6   0  0  0
   98  69   0   7   8   0  1  0
   99  69   0   9  10   0  1  0
  100  69   0   7  10   0  1  0
  101  69   0   9  10   0  1  0
  102  69   0   7  10   0  1  0
  103  69   0   9  10   0  1  0
  104  69   0   7  10   0  1  0
  105  69   0   9  10   0  1  0
  106  69   0   7  10   0  1  0
  107  69   0   9  10   0  1  0
  108  69   0   7  10   0  1  0
  109  69   0   9  10   0  1  0
  110  69   0   7  10   0  1  0
  111  69   0   9  10   0  1  0
  112  69   0   7  10   0  1  0
  113  69   0   9  10   0  1  0
  114  69   0   7  10   0  1  0
  115  69   0   9  10   0  1  0
  116  69   0   7  10   0  1  0
  117  69   0   9  10   0  1  0
  118  69   0   7  10   0  1  0
  119  69   0   9  10   0  1  0
  120  69   0   7  10   0  1  0
  121  69   0   9  10   0  1  0
  122  69   0   7  10   0  1  0
  123  69   0   9  10   0  1  0
  124  69   0   7  10   0  1  0
  125  69   0   9  10   0  1  0
  126  69   0   7  10   0  1  0
  127  69   0   9  10   0  1  0
  128  69   0   7  10   0  1  0
  129  69   0   9  10   0  1  0
  130  69   0   7  10   0  1  0
  131  69   0   9  10   0  1  0
  132  69   0   7  10   0  1  0
  133  69   0   9  10   0  1  0
  134  69   0   7  11   0  1  0
  135 2900   0   0   0   0  0  0
  136 1225   1   0   0   1  0  0
  137 328   8   0   0   2  0  1
  138 134   0   0   0   3  0  0
  139 2343   0   4   4   4  0  0
  140 328   9   0   0   2  0  0
  141 1681   0   4   4   4  0  0
  142  48   0   5   6   0  0  0
  143  69   0   7   8   0  1  0
  144  69   0   9  10   0  1  0
  145  69   0   7  10   0  1  0
  146  69   0   9  10   0  1  0
  147  69   0   7  10   0  1  0
  148  69   0   9  10   0  1  0
  149  69   0   7  10   0  1  0
  150  69   0   9  10   0  1  0
  151  69   0   7  10   0  1  0
  152  69   0   9  10   0  1  0
  153  69   0   7  10   0  1  0
  154  69   0   9  10   0  1  0
  155  69   0   7  10   0  1  0
  156  69   0   9  10   0  1  0
  157  69   0   7  10   0  1  0
  158  69   0   9  10   0  1  0
  159  69   0   7  10   0  1  0
  160  69   0   9  10   0  1  0
  161  69   0   7  10   0  1  0
  162  69   0   9  10   0  1  0
  163  69   0   7  10   0  1  0
  164  69   0   9  10   0  1  0
  165  69   0   7  10   0  1  0
  166  69   0   9  10   0  1  0
  167  69   0   7  10   0  1  0
  168  69   0   9  10   0  1  0
  169  69   0   7  10   0  1  0
  170  69   0   9  10   0  1  0
  171  69   0   7  10   0  1  0
  172  69   0   9  10   0  1  0
  173  69   0   7  10   0  1  0
  174  69   0   9  10   0  1  0
  175  69   0   7  10   0  1  0
  176  69   0   9  10   0  1  0
  177  69   0   7  10   0  1  0
  178  69   0   9  10   0  1  0
  179  69   0   7  11   0  1  0
  180 2900   0   0   0   0  0  0
  181 1225   1   0   0   1  0  0
  182 328  10   0   0   2  0  1
  183 134   0   0   0   3  0  0
  184 2343   0   4   4   4  0  0
  185 328  11   0   0   2  0  0
  186 1681   0   4   4   4  0  0
  187  48   0   5   6   0  0  0
  188  69   0   7   8   0  1  0
  189  69   0   9  10   0  1  0
  190  69   0   7  10   0  1  0
  191  69   0   9  10   0  1  0
  192  69   0   7  10   0  1  0
  193  69   0   9  10   0  1  0
  194  69   0   7  10   0  1  0
  195  69   0   9  10   0  1  0
  196  69   0   7  10   0  1  0
  197  69   0   9  10   0  1  0
  198  69   0   7  10   0  1  0
  199  69   0   9  10   0  1  0
  200  69   0   7  10   0  1  0
  201  69   0   9  10   0  1  0
  202  69   0   7  10   0  1  0
  203  69   0   9  10   0  1  0
  204  69   0   7  10   0  1  0
  205  69   0   9  10   0  1  0
  206  69   0   7  10   0  1  0
  207  69   0   9  10   0  1  0
  208  69   0   7  10   0  1  0
  209  69   0   9  10   0  1  0
  210  69   0   7  10   0  1  0
  211  69   0   9  10   0  1  0
  212  69   0   7  10   0  1  0
  213  69   0   9  10   0  1  0
  214  69   0   7  10   0  1  0
  215  69   0   9  10   0  1  0
  216  69   0   7  10   0  1  0
  217  69   0   9  10   0  1  0
  218  69   0   7  10   0  1  0
  219  69   0   9  10   0  1  0
  220  69   0   7  10   0  1  0
  221  69   0   9  10   0  1  0
  222  69   0   7  10   0  1  0
  223  69   0   9  10   0  1  0
  224  69   0   7  11   0  1  0
  225 2900   0   0   0   0  0  0
  226 1225   1   0   0   1  0  0
  227 328  12   0   0   2  0  1
  228 134   0   0   0   3  0  0
  229 2343   0   4   4   4  0  0
  230 328  13   0   0   2  0  0
  231 1681   0   4   4   4  0  0
  232  48   0   5   6   0  0  0
  233  69   0   7   8   0  1  0
  234  69   0   9  10   0  1  0
  235  69   0   7  10   0  1  0
  236  69   0   9  10   0  1  0
  237  69   0   7  10   0  1  0
  238  69   0   9  10   0  1  0
  239  69   0   7  10   0  1  0
  240  69   0   9  10   0  1  0
  241  69   0   7  10   0  1  0
  242  69   0   9  10   0  1  0
  243  69   0   7  10   0  1  0
  244  69   0   9  10   0  1  0
  245  69   0   7  10   0  1  0
  246  69   0   9  10   0  1  0
  247  69   0   7  10   0  1  0
  248  69   0   9  10   0  1  0
  249  69   0   7  10   0  1  0
  250  69   0   9  10   0  1  0
  251  69   0   7  10   0  1  0
  252  69   0   9  10   0  1  0
  253  69   0   7  10   0  1  0
  254  69   0   9  10   0  1  0
  255  69   0   7  10   0  1  0
  256  69   0   9  10   0  1  0
  257  69   0   7  10   0  1  0
  258  69   0   9  10   0  1  0
  259  69   0   7  10   0  1  0
  260  69   0   9  10   0  1  0
  261  69   0   7  10   0  1  0
  262  69   0   9  10   0  1  0
  263  69   0   7  10   0  1  0
  264  69   0   9  10   0  1  0
  265  69   0   7  10   0  1  0
  266  69   0   9  10   0  1  0
  267  69   0   7  10   0  1  0
  268  69   0   9  10   0  1  0
  269  69   0   7  11   0  1  0
  270 2900   0   0   0   0  0  0
  271 1225   1   0   0   1  0  0
  272 328  14   0   0   2  0  1
  273 134   0   0   0   3  0  0
  274 2343   0   4   4   4  0  0
  275 328  15   0   0   2  0  0
  276 1681   0   4   4   4  0  0
  277  48   0   5   6   0  0  0
  278  69   0   7   8   0  1  0
  279  69   0   9  10   0  1  0
  280  69   0   7  10   0  1  0
  281  69   0   9  10   0  1  0
  282  69   0   7  10   0  1  0
  283  69   0   9  10   0  1  0
  284  69   0   7  10   0  1  0
  285  69   0   9  10   0  1  0
  286  69   0   7  10   0  1  0
  287  69   0   9  10   0  1  0
  288  69   0   7  10   0  1  0
  289  69   0   9  10   0  1  0
  290  69   0   7  10   0  1  0
  291  69   0   9  10   0  1  0
  292  69   0   7  10   0  1  0
  293  69   0   9  10   0  1  0
  294  69   0   7  10   0  1  0
  295  69   0   9  10   0  1  0
  296  69   0   7  10   0  1  0
  297  69   0   9  10   0  1  0
  298  69   0   7  10   0  1  0
  299  69   0   9  10   0  1  0
  300  69   0   7  10   0  1  0
  301  69   0   9  10   0  1  0
[RF]
1      129.712 1 2 0 100 -424.504 10.6689
2      329.152 3 4 0 140 -56666.7 0
3      658.303 3 4 0 140 -56666.7 1.5708
4      329.152 3 4 0 140 -54000 0
5      658.303 3 4 0 140 -54000 1.5708
6      329.152 3 4 0 140 -51333.3 0
7      658.303 3 4 0 140 -51333.3 1.5708
8      329.152 3 4 0 140 -48666.7 0
9      658.303 3 4 0 140 -48666.7 1.5708
10      329.152 3 4 0 140 -46000 0
11      658.303 3 4 0 140 -46000 1.5708
12      329.152 3 4 0 140 -43333.3 0
13      658.303 3 4 0 140 -43333.3 1.5708
14      329.152 3 4 0 140 -40666.7 0
15      658.303 3 4 0 140 -40666.7 1.5708
16      329.152 3 4 0 140 -38000 0
17      658.303 3 4 0 140 -38000 1.5708
18      329.152 3 4 0 140 -35333.3 0
19      658.303 3 4 0 140 -35333.3 1.5708
20      329.152 3 4 0 140 -32666.7 0
21      658.303 3 4 0 140 -32666.7 1.5708
22      329.152 3 4 0 140 -30000 0
23      658.303 3 4 0 140 -30000 1.5708
24      329.152 3 4 0 140 -27333.3 0
25      658.303 3 4 0 140 -27333.3 1.5708
26      329.152 3 4 0 140 -24666.7 0
27      658.303 3 4 0 140 -24666.7 1.5708
28      329.152 3 4 0 140 -22000 0
29      658.303 3 4 0 140 -22000 1.5708
30      329.152 3 4 0 140 -19333.3 0
31      658.303 3 4 0 140 -19333.3 1.5708
32      329.152 3 4 0 140 -16666.7 0
33      658.303 3 4 0 140 -16666.7 1.5708
34      329.152 3 4 0 140 -14000 0
35      658.303 3 4 0 140 -14000 1.5708
36      329.152 3 4 0 140 -11333.3 0
37      658.303 3 4 0 140 -11333.3 1.5708
38      329.152 3 4 0 140 -8666.67 0
39      658.303 3 4 0 140 -8666.67 1.5708
40      329.152 3 4 0 140 -6000 0
41      658.303 3 4 0 140 -6000 1.5708
42      329.152 3 4 0 140 -3333.33 0
43      658.303 3 4 0 140 -3333.33 1.5708
44      329.152 3 4 0 140 -666.667 0
45      658.303 3 4 0 140 -666.667 1.5708
46      329.152 3 4 0 140 2000 0
47      658.303 3 4 0 140 2000 1.5708
48      329.152 3 4 0 140 4666.67 0
49      658.303 3 4 0 140 4666.67 1.5708
50      329.152 3 4 0 140 7333.33 0
51      658.303 3 4 0 140 7333.33 1.5708
52      329.152 3 4 0 140 10000 0
53      658.303 3 4 0 140 10000 1.5708
54      329.152 3 4 0 140 12666.7 0
55      658.303 3 4 0 140 12666.7 1.5708
56      329.152 3 4 0 140 15333.3 0
57      658.303 3 4 0 140 15333.3 1.5708
58      329.152 3 4 0 140 18000 0
59      658.303 3 4 0 140 18000 1.5708
60      329.152 3 4 0 140 20666.7 0
61      658.303 3 4 0 140 20666.7 1.5708
62      329.152 3 4 0 140 23333.3 0
63      658.303 3 4 0 140 23333.3 1.5708
64      329.152 3 4 0 140 26000 0
65      658.303 3 4 0 140 26000 1.5708
66      329.152 3 4 0 140 28666.7 0
67      658.303 3 4 0 140 28666.7 1.5708
68      329.152 3 4 0 140 31333.3 0
69      658.303 3 4 0 140 31333.3 1.5708
70      329.152 3 4 0 140 34000 0
71      658.303 3 4 0 140 34000 1.5708
72      329.152 3 4 0 140 36666.7 0
73      658.303 3 4 0 140 36666.7 1.5708
74      329.152 3 4 0 140 39333.3 0
75      658.303 3 4 0 140 39333.3 1.5708
76      329.152 3 4 0 140 42000 0
77      658.303 3 4 0 140 42000 1.5708
78      329.152 3 4 0 140 44666.7 0
79      658.303 3 4 0 140 44666.7 1.5708
80      329.152 3 4 0 140 47333.3 0
81      658.303 3 4 0 140 47333.3 1.5708
82      329.152 3 4 0 140 50000 0
83      658.303 3 4 0 140 50000 1.5708
84      329.152 3 4 0 140 52666.7 0
85      658.303 3 4 0 140 52666.7 1.5708
86      329.152 3 4 0 140 55333.3 0
87      658.303 3 4 0 140 55333.3 1.5708
88      329.152 3 4 0 140 58000 0
89      658.303 3 4 0 140 58000 1.5708
90      329.152 3 4 0 140 -58000 0
91      658.303 3 4 0 140 -58000 1.5708
92      329.152 3 4 0 140 -55333.3 0
93      658.303 3 4 0 140 -55333.3 1.5708
94      329.152 3 4 0 140 -52666.7 0
95      658.303 3 4 0 140 -52666.7 1.5708
96      329.152 3 4 0 140 -50000 0
97      658.303 3 4 0 140 -50000 1.5708
98      329.152 3 4 0 140 -47333.3 0
99      658.303 3 4 0 140 -47333.3 1.5708
100      329.152 3 4 0 140 -44666.7 0
101      658.303 3 4 0 140 -44666.7 1.5708
102      329.152 3 4 0 140 -42000 0
103      658.303 3 4 0 140 -42000 1.5708
104      329.152 3 4 0 140 -39333.3 0
105      658.303 3 4 0 140 -39333.3 1.5708
106      329.152 3 4 0 140 -36666.7 0
107      658.303 3 4 0 140 -36666.7 1.5708
108      329.152 3 4 0 140 -34000 0
109      658.303 3 4 0 140 -34000 1.5708
110      329.152 3 4 0 140 -31333.3 0
111      658.303 3 4 0 140 -31333.3 1.5708
112      329.152 3 4 0 140 -28666.7 0
113      658.303 3 4 0 140 -28666.7 1.5708
114      329.152 3 4 0 140 -26000 0
115      658.303 3 4 0 140 -26000 1.5708
116      329.152 3 4 0 140 -23333.3 0
117      658.303 3 4 0 140 -23333.3 1.5708
118      329.152 3 4 0 140 -20666.7 0
119      658.303 3 4 0 140 -20666.7 1.5708
120      329.152 3 4 0 140 -18000 0
121      658.303 3 4 0 140 -18000 1.5708
122      329.152 3 4 0 140 -15333.3 0
123      658.303 3 4 0 140 -15333.3 1.5708
124      329.152 3 4 0 140 -12666.7 0
125      658.303 3 4 0 140 -12666.7 1.5708
126      329.152 3 4 0 140 -10000 0
127      658.303 3 4 0 140 -10000 1.5708
128      329.152 3 4 0 140 -7333.33 0
129      658.303 3 4 0 140 -7333.33 1.5708
130      329.152 3 4 0 140 -4666.67 0
131      658.303 3 4 0 140 -4666.67 1.5708
132      329.152 3 4 0 140 -2000 0
133      658.303 3 4 0 140 -2000 1.5708
134      329.152 3 4 0 140 666.667 0
135      658.303 3 4 0 140 666.667 1.5708
136      329.152 3 4 0 140 3333.33 0
137      658.303 3 4 0 140 3333.33 1.5708
138      329.152 3 4 0 140 6000 0
139      658.303 3 4 0 140 6000 1.5708
140      329.152 3 4 0 140 8666.67 0
141      658.303 3 4 0 140 8666.67 1.5708
142      329.152 3 4 0 140 11333.3 0
143      658.303 3 4 0 140 11333.3 1.5708
144      329.152 3 4 0 140 14000 0
145      658.303 3 4 0 140 14000 1.5708
146      329.152 3 4 0 140 16666.7 0
147      658.303 3 4 0 140 16666.7 1.5708
148      329.152 3 4 0 140 19333.3 0
149      658.303 3 4 0 140 19333.3 1.5708
150      329.152 3 4 0 140 22000 0
151      658.303 3 4 0 140 22000 1.5708
152      329.152 3 4 0 140 24666.7 0
153      658.303 3 4 0 140 24666.7 1.5708
154      329.152 3 4 0 140 27333.3 0
155      658.303 3 4 0 140 27333.3 1.5708
156      329.152 3 4 0 140 30000 0
157      658.303 3 4 0 140 30000 1.5708
158      329.152 3 4 0 140 32666.7 0
159      658.303 3 4 0 140 32666.7 1.5708
160      329.152 3 4 0 140 35333.3 0
161      658.303 3 4 0 140 35333.3 1.5708
162      329.152 3 4 0 140 38000 0
163      658.303 3 4 0 140 38000 1.5708
164      329.152 3 4 0 140 40666.7 0
165      658.303 3 4 0 140 40666.7 1.5708
166      329.152 3 4 0 140 43333.3 0
167      658.303 3 4 0 140 43333.3 1.5708
168      329.152 3 4 0 140 46000 0
169      658.303 3 4 0 140 46000 1.5708
170      329.152 3 4 0 140 48666.7 0
171      658.303 3 4 0 140 48666.7 1.5708
172      329.152 3 4 0 140 51333.3 0
173      658.303 3 4 0 140 51333.3 1.5708
174      329.152 3 4 0 140 54000 0
175      658.303 3 4 0 140 54000 1.5708
176      329.152 3 4 0 140 56666.7 0
177      658.303 3 4 0 140 56666.7 1.5708

# Format of arbitrary gradients:
#   time_shape_id of 0 means default timing (stepping with grad_raster starting at 1/2 of grad_raster)
# id amplitude amp_shape_id time_shape_id delay
# ..      Hz/m       ..         ..          us
[GRADIENTS]
8            0 5 6 640
10            0 7 8 0
11            0 9 10 0
13      -227273 11 6 640
14      -227273 12 8 0
15      -227273 13 10 0
17       227273 11 6 640
18       227273 12 8 0
19       227273 13 10 0

# Format of trapezoid gradients:
# id amplitude rise flat fall delay
# ..      Hz/m   us   us   us    us
[TRAP]
 1  2.89017e+06 680 2780 680 8110
 2       888889 140 3000 140   0
 3 -2.08292e+06 670    0 670   0
 4            0  10 16350  10   0
 5 -1.41534e+06 240    0 240   0
 6            0  70  340  70   0
 7  1.50969e+06 240  210 240   0
 9 -1.50969e+06 240  210 240   0
12       399113  70  340  70   0
16      -399113  70  340  70   0

# Format of ADC events:
# id num dwell delay freq phase
# ..  ..    ns    us   Hz   rad
[ADC]
1 292 2000 53 0 0

# Format of extension lists:
# id type ref next_id
# next_id of 0 terminates the list
# Extension list is followed by extension specifications
[EXTENSIONS]
1 1 1 0

# Extension specification for digital output and input triggers:
# id type channel delay (us) duration (us)
extension TRIGGERS 1
1 1 1 0 100

# Sequence Shapes
[SHAPES]

shape_id 1
num_samples 8000
0.00011671692
0.000117246598
0.000117778547
0.000118312775
0.000118849292
0.000119388107
0.000119929229
0.000120472667
0.00012101843
0.000121566528
0.00012211697
0.000122669766
0.000123224925
0.000123782455
0.000124342368
0.000124904672
0.000125469377
0.000126036492
0.000126606027
0.000127177991
0.000127752395
0.000128329248
0.00012890856
0.00012949034
0.000130074599
0.000130661345
0.00013125059
0.000131842343
0.000132436615
0.000133033414
0.000133632751
0.000134234636
0.000134839079
0.000135446091
0.000136055681
0.000136667861
0.000137282639
0.000137900026
0.000138520034
0.000139142671
0.000139767949
0.000140395877
0.000141026467
0.000141659729
0.000142295674
0.000142934311
0.000143575652
0.000144219708
0.000144866489
0.000145516005
0.000146168268
0.000146823289
0.000147481078
0.000148141646
0.000148805005
0.000149471164
0.000150140136
0.000150811931
0.000151486561
0.000152164036
0.000152844368
0.000153527567
0.000154213646
0.000154902616
0.000155594487
0.000156289272
0.000156986981
0.000157687627
0.00015839122
0.000159097773
0.000159807296
0.000160519802
0.000161235302
0.000161953808
0.000162675332
0.000163399885
0.000164127479
0.000164858127
0.000165591839
0.000166328629
0.000167068508
0.000167811488
0.000168557582
0.000169306801
0.000170059157
0.000170814664
0.000171573332
0.000172335175
0.000173100205
0.000173868435
0.000174639875
0.00017541454
0.000176192442
0.000176973594
0.000177758007
0.000178545694
0.00017933667
0.000180130945
0.000180928533
0.000181729447
0.0001825337
0.000183341305
0.000184152274
0.000184966621
0.000185784359
0.0001866055
0.000187430059
0.000188258048
0.000189089481
0.00018992437
0.00019076273
0.000191604574
0.000192449915
0.000193298766
0.000194151142
0.000195007056
0.000195866521
0.000196729551
0.000197596161
0.000198466363
0.000199340172
0.000200217601
0.000201098665
0.000201983377
0.000202871752
0.000203763803
0.000204659545
0.000205558992
0.000206462158
0.000207369058
0.000208279705
0.000209194114
0.000210112301
0.000211034278
0.000211960061
0.000212889664
0.000213823102
0.00021476039
0.000215701542
0.000216646573
0.000217595498
0.000218548332
0.00021950509
0.000220465787
0.000221430438
0.000222399058
0.000223371661
0.000224348265
0.000225328883
0.000226313531
0.000227302224
0.000228294978
0.000229291809
0.000230292731
0.000231297761
0.000232306914
0.000233320205
0.000234337651
0.000235359268
0.00023638507
0.000237415075
0.000238449298
0.000239487755
0.000240530462
0.000241577435
0.000242628691
0.000243684245
0.000244744115
0.000245808316
0.000246876865
0.000247949779
0.000249027073
0.000250108764
0.00025119487
0.000252285407
0.000253380391
0.000254479839
0.000255583769
0.000256692197
0.00025780514
0.000258922615
0.00026004464
0.000261171231
0.000262302406
0.000263438182
0.000264578576
0.000265723606
0.000266873289
0.000268027644
0.000269186686
0.000270350434
0.000271518906
0.00027269212
0.000273870093
0.000275052843
0.000276240388
0.000277432746
0.000278629935
0.000279831974
0.00028103888
0.000282250672
0.000283467369
0.000284688987
0.000285915547
0.000287147065
0.000288383562
0.000289625056
0.000290871565
0.000292123107
0.000293379703
0.00029464137
0.000295908129
0.000297179997
0.000298456993
0.000299739138
0.00030102645
0.000302318948
0.000303616652
0.000304919581
0.000306227754
0.000307541192
0.000308859914
0.000310183939
0.000311513287
0.000312847978
0.000314188031
0.000315533468
0.000316884307
0.000318240569
0.000319602274
0.000320969442
0.000322342094
0.000323720249
0.000325103928
0.000326493152
0.000327887941
0.000329288316
0.000330694297
0.000332105906
0.000333523162
0.000334946087
0.000336374702
0.000337809028
0.000339249086
0.000340694897
0.000342146483
0.000343603864
0.000345067062
0.000346536098
0.000348010995
0.000349491773
0.000350978455
0.000352471061
0.000353969614
0.000355474136
0.000356984649
0.000358501175
0.000360023735
0.000361552352
0.000363087048
0.000364627846
0.000366174768
0.000367727836
0.000369287073
0.000370852502
0.000372424145
0.000374002025
0.000375586165
0.000377176588
0.000378773316
0.000380376374
0.000381985783
0.000383601568
0.000385223751
0.000386852356
0.000388487407
0.000390128926
0.000391776938
0.000393431466
0.000395092534
0.000396760165
0.000398434385
0.000400115216
0.000401802683
0.00040349681
0.000405197621
0.000406905141
0.000408619393
0.000410340403
0.000412068195
0.000413802794
0.000415544223
0.000417292509
0.000419047676
0.000420809748
0.000422578752
0.000424354712
0.000426137653
0.0004279276
0.00042972458
0.000431528616
0.000433339736
0.000435157964
0.000436983327
0.000438815849
0.000440655558
0.000442502478
0.000444356636
0.000446218058
0.000448086771
0.0004499628
0.000451846171
0.000453736912
0.000455635049
0.000457540609
0.000459453617
0.000461374102
0.000463302089
0.000465237607
0.000467180681
0.00046913134
0.00047108961
0.000473055518
0.000475029093
0.000477010361
0.000478999351
0.000480996089
0.000483000604
0.000485012924
0.000487033076
0.000489061088
0.000491096989
0.000493140807
0.00049519257
0.000497252307
0.000499320045
0.000501395815
0.000503479643
0.00050557156
0.000507671594
0.000509779773
0.000511896128
0.000514020686
0.000516153478
0.000518294532
0.000520443879
0.000522601547
0.000524767566
0.000526941966
0.000529124776
0.000531316027
0.000533515749
0.000535723971
0.000537940724
0.000540166038
0.000542399943
0.00054464247
0.00054689365
0.000549153512
0.000551422088
0.00055369941
0.000555985506
0.000558280409
0.000560584151
0.000562896761
0.000565218271
0.000567548713
0.000569888119
0.00057223652
0.000574593947
0.000576960433
0.00057933601
0.000581720709
0.000584114562
0.000586517603
0.000588929863
0.000591351374
0.00059378217
0.000596222283
0.000598671745
0.00060113059
0.00060359885
0.000606076559
0.00060856375
0.000611060455
0.000613566709
0.000616082544
0.000618607995
0.000621143095
0.000623687878
0.000626242378
0.000628806628
0.000631380663
0.000633964518
0.000636558225
0.000639161821
0.000641775339
0.000644398813
0.00064703228
0.000649675773
0.000652329328
0.000654992979
0.000657666762
0.000660350713
0.000663044866
0.000665749256
0.000668463921
0.000671188895
0.000673924214
0.000676669914
0.000679426032
0.000682192603
0.000684969663
0.00068775725
0.000690555399
0.000693364148
0.000696183533
0.00069901359
0.000701854357
0.000704705871
0.000707568169
0.000710441289
0.000713325267
0.000716220142
0.000719125951
0.000722042731
0.000724970521
0.000727909359
0.000730859282
0.000733820329
0.000736792539
0.00073977595
0.0007427706
0.000745776528
0.000748793772
0.000751822373
0.000754862369
0.000757913798
0.000760976702
0.000764051117
0.000767137086
0.000770234646
0.000773343838
0.000776464701
0.000779597277
0.000782741604
0.000785897723
0.000789065675
0.000792245499
0.000795437238
0.00079864093
0.000801856618
0.000805084342
0.000808324144
0.000811576064
0.000814840144
0.000818116426
0.000821404951
0.00082470576
0.000828018897
0.000831344402
0.000834682318
0.000838032687
0.000841395552
0.000844770954
0.000848158938
0.000851559545
0.000854972818
0.0008583988
0.000861837535
0.000865289066
0.000868753436
0.000872230689
0.000875720869
0.000879224018
0.000882740182
0.000886269404
0.000889811728
0.000893367199
0.000896935862
0.00090051776
0.000904112939
0.000907721443
0.000911343318
0.000914978608
0.000918627359
0.000922289616
0.000925965425
0.000929654832
0.000933357881
0.00093707462
0.000940805094
0.00094454935
0.000948307433
0.000952079391
0.00095586527
0.000959665116
0.000963478977
0.0009673069
0.000971148931
0.000975005119
0.00097887551
0.000982760152
0.000986659094
0.000990572382
0.000994500065
0.000998442191
0.00100239881
0.00100636997
0.00101035571
0.00101435609
0.00101837116
0.00102240097
0.00102644555
0.00103050498
0.00103457928
0.00103866852
0.00104277274
0.00104689199
0.00105102632
0.00105517579
0.00105934043
0.00106352032
0.00106771548
0.00107192598
0.00107615187
0.00108039319
0.00108465
0.00108892235
0.00109321029
0.00109751387
0.00110183315
0.00110616817
0.00111051899
0.00111488566
0.00111926823
0.00112366676
0.0011280813
0.0011325119
0.00113695861
0.00114142149
0.00114590059
0.00115039596
0.00115490767
0.00115943575
0.00116398027
0.00116854128
0.00117311883
0.00117771298
0.00118232379
0.0011869513
0.00119159557
0.00119625666
0.00120093463
0.00120562952
0.00121034139
0.00121507031
0.00121981632
0.00122457948
0.00122935985
0.00123415748
0.00123897244
0.00124380477
0.00124865453
0.00125352178
0.00125840658
0.00126330899
0.00126822906
0.00127316685
0.00127812241
0.00128309582
0.00128808711
0.00129309636
0.00129812362
0.00130316895
0.00130823241
0.00131331405
0.00131841394
0.00132353214
0.0013286687
0.00133382368
0.00133899715
0.00134418917
0.00134939978
0.00135462907
0.00135987707
0.00136514387
0.00137042951
0.00137573405
0.00138105757
0.00138640012
0.00139176175
0.00139714255
0.00140254255
0.00140796183
0.00141340046
0.00141885848
0.00142433597
0.00142983298
0.00143534959
0.00144088585
0.00144644182
0.00145201757
0.00145761317
0.00146322867
0.00146886414
0.00147451965
0.00148019526
0.00148589103
0.00149160703
0.00149734332
0.00150309998
0.00150887705
0.00151467461
0.00152049273
0.00152633147
0.00153219089
0.00153807107
0.00154397207
0.00154989395
0.00155583678
0.00156180063
0.00156778556
0.00157379165
0.00157981896
0.00158586756
0.00159193751
0.00159802889
0.00160414175
0.00161027618
0.00161643224
0.00162260999
0.00162880951
0.00163503086
0.00164127412
0.00164753936
0.00165382663
0.00166013602
0.0016664676
0.00167282143
0.00167919758
0.00168559613
0.00169201714
0.00169846069
0.00170492685
0.00171141568
0.00171792727
0.00172446168
0.00173101899
0.00173759926
0.00174420257
0.001750829
0.0017574786
0.00176415147
0.00177084767
0.00177756727
0.00178431035
0.00179107698
0.00179786723
0.00180468119
0.00181151891
0.00181838049
0.00182526599
0.00183217549
0.00183910906
0.00184606678
0.00185304873
0.00186005497
0.0018670856
0.00187414067
0.00188122027
0.00188832448
0.00189545337
0.00190260702
0.0019097855
0.0019169889
0.00192421729
0.00193147075
0.00193874936
0.00194605319
0.00195338233
0.00196073684
0.00196811682
0.00197552234
0.00198295349
0.00199041033
0.00199789294
0.00200540142
0.00201293584
0.00202049628
0.00202808281
0.00203569553
0.00204333451
0.00205099983
0.00205869158
0.00206640983
0.00207415468
0.00208192619
0.00208972445
0.00209754955
0.00210540157
0.00211328059
0.00212118669
0.00212911996
0.00213708048
0.00214506833
0.0021530836
0.00216112638
0.00216919674
0.00217729478
0.00218542057
0.00219357421
0.00220175577
0.00220996535
0.00221820302
0.00222646888
0.00223476301
0.0022430855
0.00225143643
0.0022598159
0.00226822398
0.00227666077
0.00228512636
0.00229362082
0.00230214426
0.00231069675
0.00231927839
0.00232788927
0.00233652947
0.00234519908
0.0023538982
0.00236262691
0.0023713853
0.00238017347
0.00238899149
0.00239783948
0.0024067175
0.00241562567
0.00242456406
0.00243353277
0.00244253189
0.00245156151
0.00246062173
0.00246971263
0.00247883431
0.00248798687
0.0024971704
0.00250638498
0.00251563072
0.0025249077
0.00253421603
0.00254355579
0.00255292709
0.00256233001
0.00257176465
0.00258123111
0.00259072947
0.00260025985
0.00260982233
0.00261941701
0.00262904399
0.00263870336
0.00264839522
0.00265811967
0.00266787681
0.00267766673
0.00268748953
0.00269734531
0.00270723417
0.00271715621
0.00272711153
0.00273710022
0.00274712238
0.00275717812
0.00276726754
0.00277739073
0.0027875478
0.00279773885
0.00280796397
0.00281822327
0.00282851686
0.00283884483
0.00284920728
0.00285960432
0.00287003605
0.00288050258
0.002891004
0.00290154042
0.00291211194
0.00292271867
0.00293336071
0.00294403817
0.00295475115
0.00296549975
0.00297628409
0.00298710426
0.00299796037
0.00300885253
0.00301978085
0.00303074542
0.00304174636
0.00305278378
0.00306385778
0.00307496847
0.00308611595
0.00309730035
0.00310852175
0.00311978028
0.00313107603
0.00314240913
